# Matter power spectrum P(k) at redshift z=0
# for k=1.04595e-05 to 1.0871 h/Mpc,
# number of wavenumbers equal to 603
#    1:k (h/Mpc)              2:P (Mpc/h)^3        
       1.045945127612e-05       4.769474850457e+01 
       2.331030718023e-05       1.034402926259e+02 
       3.620623530250e-05       1.582798160321e+02 
       4.918177117858e-05       2.127746743340e+02 
       6.227201971131e-05       2.672487174557e+02 
       7.551296673595e-05       3.219471876329e+02 
       8.894180051391e-05       3.770814489833e+02 
       1.025972474121e-04       4.328473412585e+02 
       1.165199260580e-04       4.894346520928e+02 
       1.307527242929e-04       5.470328922560e+02 
       1.453412032548e-04       6.058353304393e+02 
       1.603340328627e-04       6.660421664865e+02 
       1.757834628033e-04       7.278632599422e+02 
       1.917458327621e-04       7.915206416860e+02 
       2.082821250011e-04       8.572509351305e+02 
       2.254585613378e-04       9.253077587567e+02 
       2.433472449629e-04       9.959641460034e+02 
       2.620268451269e-04       1.069514998318e+03 
       2.815833192738e-04       1.146279543419e+03 
       3.021106623714e-04       1.226603770502e+03 
       3.237116666235e-04       1.310862759337e+03 
       3.464986660462e-04       1.399462797414e+03 
       3.705942291804e-04       1.492843127132e+03 
       3.961317492422e-04       1.591477105225e+03 
       4.232558642807e-04       1.695872511319e+03 
       4.521226209217e-04       1.806570646580e+03 
       4.828992752975e-04       1.924143827345e+03 
       5.157636062402e-04       2.049190788774e+03 
       5.509026026750e-04       2.182329516473e+03 
       5.885103850585e-04       2.324187024113e+03 
       6.287852368154e-04       2.475385702257e+03 
       6.719256638313e-04       2.636526060994e+03 
       7.181254746123e-04       2.808166035304e+03 
       7.675679828355e-04       2.990797449943e+03 
       8.204195717702e-04       3.184820777625e+03 
       8.768230094416e-04       3.390519983151e+03 
       9.368910358841e-04       3.608039493515e+03 
       1.000700823592e-03       3.837365866224e+03 
       1.068289905770e-03       4.078316278878e+03 
       1.139654055821e-03       4.330535729328e+03 
       1.214747393270e-03       4.593503494095e+03 
       1.293484722253e-03       4.866549211475e+03 
       1.375745835255e-03       5.148855619095e+03 
       1.461381295461e-03       5.439525438103e+03 
       1.550219087820e-03       5.737615004066e+03 
       1.642071514798e-03       6.042125758632e+03 
       1.736741792394e-03       6.352051738125e+03 
       1.834029941195e-03       6.666404116642e+03 
       1.933737727182e-03       6.984230910104e+03 
       2.035672555336e-03       7.304632128133e+03 
       2.139650336230e-03       7.626769658135e+03 
       2.245497424536e-03       7.949873478592e+03 
       2.353051771073e-03       8.273244500555e+03 
       2.462163444140e-03       8.596253363705e+03 
       2.572694670398e-03       8.918338891174e+03 
       2.684519528660e-03       9.239003863434e+03 
       2.797523407930e-03       9.557810866683e+03 
       2.911602318308e-03       9.874377197228e+03 
       3.026662122317e-03       1.018836914834e+04 
       3.142617736156e-03       1.049949775331e+04 
       3.259392335709e-03       1.080751372637e+04 
       3.376916590580e-03       1.111220315908e+04 
       3.495127940749e-03       1.141338210817e+04 
       3.613969924073e-03       1.171089585963e+04 
       3.733391558271e-03       1.200461175243e+04 
       3.853346777979e-03       1.229442130751e+04 
       3.973793925354e-03       1.258023251039e+04 
       4.094695291451e-03       1.286197247819e+04 
       4.216016704876e-03       1.313957782270e+04 
       4.337727163858e-03       1.341300357336e+04 
       4.459798507808e-03       1.368221579770e+04 
       4.582205124542e-03       1.394718802150e+04 
       4.704923689492e-03       1.420790202440e+04 
       4.827932933535e-03       1.446434536475e+04 
       4.951213436295e-03       1.471651771623e+04 
       5.074747442112e-03       1.496439591175e+04 
       5.198518696112e-03       1.520808551281e+04 
       5.322512298097e-03       1.544748093904e+04 
       5.446714572234e-03       1.568262703357e+04 
       5.571112950725e-03       1.591358253272e+04 
       5.695695869853e-03       1.614033152953e+04 
       5.820452677015e-03       1.636294476227e+04 
       5.945373547465e-03       1.658140474765e+04 
       6.070449409683e-03       1.679572798829e+04 
       6.195671878394e-03       1.700600001405e+04 
       6.321033194380e-03       1.721225636104e+04 
       6.446526170334e-03       1.741448118990e+04 
       6.572144142081e-03       1.761273216803e+04 
       6.697880924598e-03       1.780704930611e+04 
       6.823730772287e-03       1.799748834647e+04 
       6.949688343070e-03       1.818407309827e+04 
       7.075748665881e-03       1.836684411903e+04 
       7.201907111211e-03       1.854586824230e+04 
       7.328159364377e-03       1.872115055156e+04 
       7.454501401243e-03       1.889273948814e+04 
       7.580929466136e-03       1.906069711225e+04 
       7.707440051741e-03       1.922504990063e+04 
       7.834029880772e-03       1.938584986512e+04 
       7.960695889247e-03       1.954314331949e+04 
       8.087435211214e-03       1.969694675109e+04 
       8.214245164771e-03       1.984731154342e+04 
       8.341123239287e-03       1.999428422639e+04 
       8.468067083672e-03       2.013789924344e+04 
       8.595074495633e-03       2.027819444848e+04 
       8.722143411802e-03       2.041521433268e+04 
       8.849271898667e-03       2.054898869296e+04 
       8.976458144225e-03       2.067956072395e+04 
       9.103700450309e-03       2.080697093213e+04 
       9.230997225503e-03       2.093124858197e+04 
       9.358346978621e-03       2.105244005881e+04 
       9.485748312684e-03       2.117057441483e+04 
       9.613199919355e-03       2.128569481884e+04 
       9.740700573800e-03       2.139782938171e+04 
       9.868249129934e-03       2.150702500692e+04 
       9.995844516016e-03       2.161330914126e+04 
       1.012348573058e-02       2.171671956455e+04 
       1.025117183864e-02       2.181729063676e+04 
       1.037890196822e-02       2.191506127837e+04 
       1.050667530708e-02       2.201006139382e+04 
       1.063449109970e-02       2.210232444723e+04 
       1.076234864451e-02       2.219189076022e+04 
       1.089024729123e-02       2.227878596308e+04 
       1.101818643853e-02       2.236304777644e+04 
       1.114616553173e-02       2.244470002717e+04 
       1.127418406070e-02       2.252377894648e+04 
       1.140224155799e-02       2.260032108959e+04 
       1.153033759693e-02       2.267435352337e+04 
       1.165847179002e-02       2.274590690026e+04 
       1.178664378734e-02       2.281501152511e+04 
       1.191485327509e-02       2.288169768184e+04 
       1.204309997425e-02       2.294599698021e+04 
       1.217138363930e-02       2.300793681322e+04 
       1.229970405708e-02       2.306753795147e+04 
       1.242806104568e-02       2.312484844855e+04 
       1.255645445346e-02       2.317987990711e+04 
       1.268488415807e-02       2.323267770975e+04 
       1.281335006560e-02       2.328325872129e+04 
       1.294185210981e-02       2.333165308609e+04 
       1.307039025131e-02       2.337788375907e+04 
       1.319896447694e-02       2.342198697506e+04 
       1.332757479910e-02       2.346398938291e+04 
       1.345622125517e-02       2.350389728445e+04 
       1.358490390696e-02       2.354175679507e+04 
       1.371362284025e-02       2.357759331427e+04 
       1.384237816429e-02       2.361142182689e+04 
       1.397117001142e-02       2.364328285112e+04 
       1.409999853668e-02       2.367319451920e+04 
       1.422886391749e-02       2.370117463612e+04 
       1.435776635331e-02       2.372725736336e+04 
       1.448670606541e-02       2.375146243970e+04 
       1.461568329660e-02       2.377381898643e+04 
       1.474469831102e-02       2.379434647693e+04 
       1.487375139397e-02       2.381307720185e+04 
       1.500284285175e-02       2.383003754845e+04 
       1.513197301152e-02       2.384522599266e+04 
       1.526114222121e-02       2.385869402268e+04 
       1.539035084943e-02       2.387044131419e+04 
       1.551959928541e-02       2.388050951950e+04 
       1.564888793897e-02       2.388891541720e+04 
       1.577821724050e-02       2.389568873391e+04 
       1.590758764100e-02       2.390082549846e+04 
       1.603699961205e-02       2.390437260680e+04 
       1.616645364590e-02       2.390635086572e+04 
       1.629595025556e-02       2.390676467210e+04 
       1.642548997480e-02       2.390565870529e+04 
       1.655507335836e-02       2.390302847025e+04 
       1.668470098201e-02       2.389892966895e+04 
       1.681437344269e-02       2.389334652079e+04 
       1.694409135870e-02       2.388632472277e+04 
       1.707385536987e-02       2.387787388113e+04 
       1.720366613773e-02       2.386802142453e+04 
       1.733352434576e-02       2.385678019662e+04 
       1.746343069957e-02       2.384417611244e+04 
       1.759338592719e-02       2.383023904805e+04 
       1.772339077931e-02       2.381496563942e+04 
       1.785344602953e-02       2.379839724335e+04 
       1.798355247474e-02       2.378053158149e+04 
       1.811371093531e-02       2.376140929314e+04 
       1.824392225554e-02       2.374104764224e+04 
       1.837418730390e-02       2.371944775596e+04 
       1.850450697348e-02       2.369665180335e+04 
       1.863488218230e-02       2.367265664423e+04 
       1.876531387373e-02       2.364747860681e+04 
       1.889580301691e-02       2.362119113152e+04 
       1.902635060718e-02       2.359372234339e+04 
       1.915695766651e-02       2.356515693366e+04 
       1.928762524398e-02       2.353549374846e+04 
       1.941835441625e-02       2.350475220247e+04 
       1.954914628806e-02       2.347296326295e+04 
       1.968000199278e-02       2.344013039317e+04 
       1.981092269291e-02       2.340624932387e+04 
       1.994190958066e-02       2.337135140143e+04 
       2.007296387851e-02       2.333547451006e+04 
       2.020408683982e-02       2.329862850659e+04 
       2.033527974945e-02       2.326082041842e+04 
       2.046654392440e-02       2.322206686454e+04 
       2.059788071445e-02       2.318240076636e+04 
       2.072929150284e-02       2.314182727909e+04 
       2.086077770702e-02       2.310033374482e+04 
       2.099234077932e-02       2.305801279722e+04 
       2.112398220773e-02       2.301480173502e+04 
       2.125570351667e-02       2.297070584122e+04 
       2.138750626779e-02       2.292584382780e+04 
       2.151939206078e-02       2.288016590076e+04 
       2.165136253423e-02       2.283368048491e+04 
       2.178341936652e-02       2.278640747664e+04 
       2.191556427671e-02       2.273834423747e+04 
       2.204779902545e-02       2.268955301846e+04 
       2.218012541601e-02       2.264007158290e+04 
       2.231254529519e-02       2.258984608227e+04 
       2.244506055440e-02       2.253883778458e+04 
       2.257767313070e-02       2.248719722448e+04 
       2.271038500787e-02       2.243487877440e+04 
       2.284319821757e-02       2.238185525484e+04 
       2.297611484045e-02       2.232825839728e+04 
       2.310913700739e-02       2.227393891629e+04 
       2.324226690070e-02       2.221903213429e+04 
       2.337550675540e-02       2.216353901488e+04 
       2.350885886054e-02       2.210745657113e+04 
       2.364232556053e-02       2.205076721570e+04 
       2.377590925655e-02       2.199349848236e+04 
       2.390961240799e-02       2.193571433545e+04 
       2.404343753394e-02       2.187736655334e+04 
       2.417738721468e-02       2.181848021536e+04 
       2.431146409334e-02       2.175907831556e+04 
       2.444567087745e-02       2.169921624236e+04 
       2.458001034068e-02       2.163877693789e+04 
       2.471448532458e-02       2.157792749317e+04 
       2.484909874034e-02       2.151660781594e+04 
       2.498385357067e-02       2.145480159339e+04 
       2.511875287175e-02       2.139258445979e+04 
       2.525379977515e-02       2.132993847240e+04 
       2.538899748993e-02       2.126679703660e+04 
       2.552434930472e-02       2.120333294719e+04 
       2.565985858994e-02       2.113945925537e+04 
       2.579552880006e-02       2.107518525490e+04 
       2.593136347591e-02       2.101051395693e+04 
       2.606736624713e-02       2.094551384810e+04 
       2.620354083468e-02       2.088011658943e+04 
       2.633989105340e-02       2.081444027455e+04 
       2.647642081473e-02       2.074837859318e+04 
       2.661313412944e-02       2.068206313246e+04 
       2.675003511058e-02       2.061535908423e+04 
       2.688712797636e-02       2.054839906185e+04 
       2.702441705333e-02       2.048112306571e+04 
       2.716190677952e-02       2.041358178067e+04 
       2.729960170775e-02       2.034575627585e+04 
       2.743750650911e-02       2.027762997068e+04 
       2.757562597648e-02       2.020932342493e+04 
       2.771396502822e-02       2.014076370362e+04 
       2.785252871204e-02       2.007189014514e+04 
       2.799132220894e-02       2.000289505325e+04 
       2.813035083738e-02       1.993363984390e+04 
       2.826962005749e-02       1.986416141154e+04 
       2.840913547559e-02       1.979454728206e+04 
       2.854890284881e-02       1.972463981279e+04 
       2.868892808984e-02       1.965460808638e+04 
       2.882921727198e-02       1.958441082454e+04 
       2.896977663430e-02       1.951402034033e+04 
       2.911061258706e-02       1.944349803454e+04 
       2.925173171731e-02       1.937281380000e+04 
       2.939314079477e-02       1.930197797860e+04 
       2.953484677786e-02       1.923101181955e+04 
       2.967685682010e-02       1.915989459838e+04 
       2.981917827669e-02       1.908866938515e+04 
       2.996181871138e-02       1.901738238432e+04 
       3.010478590365e-02       1.894589058161e+04 
       3.024808785622e-02       1.887430059359e+04 
       3.039173280281e-02       1.880272814909e+04 
       3.053572921631e-02       1.873099148785e+04 
       3.068008581728e-02       1.865917045419e+04 
       3.082481158283e-02       1.858726049452e+04 
       3.096991575588e-02       1.851534659582e+04 
       3.111540785488e-02       1.844328905840e+04 
       3.126129768393e-02       1.837122463303e+04 
       3.140759534336e-02       1.829905826812e+04 
       3.155431124089e-02       1.822692676690e+04 
       3.170145610315e-02       1.815467836593e+04 
       3.184904098793e-02       1.808239443133e+04 
       3.199707729687e-02       1.801014620271e+04 
       3.214557678880e-02       1.793779211640e+04 
       3.229455159381e-02       1.786542185277e+04 
       3.244401422787e-02       1.779303775498e+04 
       3.259397760830e-02       1.772069382316e+04 
       3.274445506993e-02       1.764834438537e+04 
       3.289546038212e-02       1.757589285417e+04 
       3.304700776665e-02       1.750354399261e+04 
       3.319911191653e-02       1.743107331558e+04 
       3.335178801573e-02       1.735874923381e+04 
       3.350505176008e-02       1.728634134090e+04 
       3.365891937914e-02       1.721398559266e+04 
       3.381340765937e-02       1.714164937572e+04 
       3.396853396843e-02       1.706926174330e+04 
       3.412431628097e-02       1.699702516093e+04 
       3.428077320572e-02       1.692468042666e+04 
       3.443792401414e-02       1.685242833825e+04 
       3.459578867079e-02       1.678023725407e+04 
       3.475438786525e-02       1.670799837835e+04 
       3.491374304612e-02       1.663588461411e+04 
       3.507387645685e-02       1.656373752126e+04 
       3.523481117374e-02       1.649164124351e+04 
       3.539657114633e-02       1.641957275350e+04 
       3.555918124006e-02       1.634755252459e+04 
       3.572266728174e-02       1.627558298218e+04 
       3.588705610774e-02       1.620364488668e+04 
       3.605237561526e-02       1.613175268024e+04 
       3.621865481690e-02       1.605990580319e+04 
       3.638592389868e-02       1.598807451533e+04 
       3.655421428199e-02       1.591635280133e+04 
       3.672355868951e-02       1.584462603805e+04 
       3.689399121566e-02       1.577295810359e+04 
       3.706554740183e-02       1.570135278239e+04 
       3.723826431676e-02       1.562977421170e+04 
       3.741218064260e-02       1.555823196009e+04 
       3.758733676700e-02       1.548673813945e+04 
       3.776377488191e-02       1.541527679155e+04 
       3.794153908953e-02       1.534388938412e+04 
       3.812067551606e-02       1.527250761275e+04 
       3.830123243404e-02       1.520115570288e+04 
       3.848326039396e-02       1.512984447258e+04 
       3.866681236607e-02       1.505855409443e+04 
       3.885194389323e-02       1.498732532336e+04 
       3.903871325600e-02       1.491608405088e+04 
       3.922718165097e-02       1.484490129763e+04 
       3.941741338382e-02       1.477370897646e+04 
       3.960947607839e-02       1.470255204272e+04 
       3.980344090344e-02       1.463141577943e+04 
       3.999938281900e-02       1.456026024731e+04 
       4.019738084416e-02       1.448909992911e+04 
       4.039751834875e-02       1.441793277964e+04 
       4.059988337135e-02       1.434679847008e+04 
       4.080456896657e-02       1.427561109998e+04 
       4.101167358483e-02       1.420440690778e+04 
       4.122130148835e-02       1.413322759329e+04 
       4.143356320744e-02       1.406192164904e+04 
       4.164857604193e-02       1.399063879085e+04 
       4.186646461303e-02       1.391929028244e+04 
       4.208736147177e-02       1.384787096966e+04 
       4.231140777109e-02       1.377639518072e+04 
       4.253875400956e-02       1.370479531226e+04 
       4.276956085597e-02       1.363313836523e+04 
       4.300400006543e-02       1.356138101214e+04 
       4.324225549923e-02       1.348949815716e+04 
       4.348452426262e-02       1.341748289563e+04 
       4.373101797711e-02       1.334529671234e+04 
       4.398196420624e-02       1.327299513652e+04 
       4.423760805749e-02       1.320049014303e+04 
       4.449821398635e-02       1.312779239692e+04 
       4.476406783332e-02       1.305490260974e+04 
       4.503547913041e-02       1.298175961466e+04 
       4.531278371973e-02       1.290836777241e+04 
       4.559634673543e-02       1.283469053420e+04 
       4.588656600946e-02       1.276067778568e+04 
       4.618387597386e-02       1.268639441433e+04 
       4.648875214666e-02       1.261167941629e+04 
       4.680171630621e-02       1.253658703665e+04 
       4.712334248111e-02       1.246108612978e+04 
       4.745426390973e-02       1.238507373134e+04 
       4.779518115776e-02       1.230856284606e+04 
       4.814687162409e-02       1.223147251302e+04 
       4.851020071896e-02       1.215371916358e+04 
       4.888613506499e-02       1.207528408585e+04 
       4.927575815639e-02       1.199614336262e+04 
       4.968028901898e-02       1.191620325299e+04 
       5.010110455025e-02       1.183531955001e+04 
       5.053976639221e-02       1.175339875495e+04 
       5.099805341175e-02       1.167034154361e+04 
       5.147800114538e-02       1.158603277212e+04 
       5.198194992303e-02       1.150031864421e+04 
       5.251260383619e-02       1.141302827934e+04 
       5.307310327366e-02       1.132389469999e+04 
       5.366711442156e-02       1.123273553821e+04 
       5.429893989830e-02       1.113916550489e+04 
       5.497365550233e-02       1.104281919520e+04 
       5.569727871036e-02       1.094324145574e+04 
       5.647697466374e-02       1.083980901987e+04 
       5.732130405290e-02       1.073172372779e+04 
       5.824051282784e-02       1.061795398556e+04 
       5.924685276739e-02       1.049716794132e+04 
       6.035489888279e-02       1.036758837364e+04 
       6.158178531351e-02       1.022685271302e+04 
