# dimensionless total lensed [l(l+1)/2pi] C_l's
# for l=2 to 2500, i.e. number of multipoles equal to 2499
#
# -> if you prefer output in CAMB/HealPix/LensPix units/order, set 'format' to 'camb' in input file
# -> if you don't want to see such a header, set 'headers' to 'no' in input file
# -> for CMB lensing (phi), these are C_l^phi-phi for the lensing potential.
#    Remember the conversion factors:
#    C_l^dd (deflection) = l(l+1) C_l^phi-phi
#    C_l^gg (shear/convergence) = 1/4 (l(l+1))^2 C_l^phi-phi
#
# 1:l     2:TT                     3:EE                     4:TE                     5:BB                     6:phiphi                 7:TPhi                   8:Ephi               
    2       1.381665381017e-10       4.179679010941e-15       3.519265470087e-13       2.310460209839e-19       8.236249120604e-09       4.535757380253e-10      -1.842347297304e-12 
    3       1.306689052414e-10       5.354766461649e-15       3.954958007529e-13       4.621798532401e-19       5.068683578791e-09       3.217368645991e-10      -1.394914121163e-12 
    4       1.236014240024e-10       4.629608746339e-15       3.698044258437e-13       7.704934401299e-19       3.524680693309e-09       2.436993362392e-10      -9.127402275497e-13 
    5       1.183100274114e-10       3.087181686581e-15       3.148739273637e-13       1.156099856525e-18       2.631927415781e-09       1.925361682155e-10      -5.069341899379e-13 
    6       1.146815172667e-10       1.726124947160e-15       2.535624637321e-13       1.619137071698e-18       2.056840461486e-09       1.566774788477e-10      -2.081020530612e-13 
    7       1.123171675354e-10       9.336935141556e-16       1.990673156504e-13       2.159765820308e-18       1.660250493921e-09       1.303574060369e-10      -1.764588350893e-14 
    8       1.109370686135e-10       6.038743081516e-16       1.571577340818e-13       2.778167163597e-18       1.372888390879e-09       1.103938060085e-10       7.941425757289e-14 
    9       1.102932633810e-10       4.858976697294e-16       1.291068488462e-13       3.474539798564e-18       1.156567203936e-09       9.490105003164e-11       1.064381408813e-13 
   10       1.101549991196e-10       4.149937089218e-16       1.135863892832e-13       4.249097178072e-18       9.888195972262e-10       8.262711830342e-11       8.927970861013e-14 
   11       1.104634340463e-10       3.497420089367e-16       1.079343995877e-13       5.102064508329e-18       8.333510790146e-10       7.300652690432e-11       5.203180956865e-14 
   12       1.110668745399e-10       3.057855509703e-16       1.090933981227e-13       6.033675691796e-18       7.283221446671e-10       6.455332774340e-11       1.227640617414e-14 
   13       1.119151426153e-10       2.941224332570e-16       1.143791506770e-13       7.044170283266e-18       6.420831896441e-10       5.768945576988e-11      -1.798964634410e-14 
   14       1.129610072610e-10       3.067855096798e-16       1.217714115151e-13       8.133790524728e-18       5.703184604478e-10       5.171305136789e-11      -3.451224543110e-14 
   15       1.141909490611e-10       3.320315386313e-16       1.299807455799e-13       9.302778520660e-18       5.098987193956e-10       4.668628542520e-11      -3.750071670716e-14 
   16       1.155295860677e-10       3.673365168801e-16       1.383438302475e-13       1.055137360985e-17       4.585180612118e-10       4.235297447591e-11      -3.091264313622e-14 
   17       1.170045676050e-10       4.182296202566e-16       1.466428473688e-13       1.187980998275e-17       4.144340997623e-10       3.857094626059e-11      -1.994028257542e-14 
   18       1.185527791124e-10       4.901417798876e-16       1.551348967945e-13       1.328831449093e-17       3.761647960285e-10       3.527258121569e-11      -9.473222532564e-15 
   19       1.201855537679e-10       5.833992470113e-16       1.640422145767e-13       1.477710533916e-17       3.431058568413e-10       3.241035294111e-11      -2.116732384200e-15 
   20       1.218956675802e-10       6.960003816793e-16       1.735056614351e-13       1.634638959330e-17       3.139848907978e-10       2.986842030781e-11       4.184936377582e-16 
   21       1.236842483136e-10       8.273090782452e-16       1.834769249911e-13       1.799636358807e-17       2.883442347884e-10       2.760104633429e-11      -1.296880192454e-15 
   22       1.255250544036e-10       9.768382960608e-16       1.937684789962e-13       1.972721036840e-17       2.655710798048e-10       2.555222803726e-11      -5.509581755848e-15 
   23       1.274245855577e-10       1.144757378016e-15       2.040579519832e-13       2.153910169242e-17       2.453608540080e-10       2.371414920858e-11      -1.047309413839e-14 
   24       1.293773094414e-10       1.331282302460e-15       2.139332064260e-13       2.343219503200e-17       2.272511353918e-10       2.207066174740e-11      -1.433115304267e-14 
   25       1.313779711788e-10       1.536631077738e-15       2.230853425220e-13       2.540663619859e-17       2.109965589698e-10       2.059911403525e-11      -1.626963685545e-14 
   26       1.334087773539e-10       1.761177483935e-15       2.312491332018e-13       2.746255729084e-17       1.962796716130e-10       1.926194543362e-11      -1.595576339274e-14 
   27       1.354792995596e-10       2.006551884216e-15       2.383532835558e-13       2.960008357965e-17       1.830241637272e-10       1.804972853594e-11      -1.390085223970e-14 
   28       1.375922314595e-10       2.275008276939e-15       2.444104130756e-13       3.181932670090e-17       1.710691305548e-10       1.694707400690e-11      -1.110992096015e-14 
   29       1.397366605627e-10       2.568824594311e-15       2.494640651005e-13       3.412038486126e-17       1.601240354070e-10       1.592764382572e-11      -8.704241145894e-15 
   30       1.419191535972e-10       2.889092247834e-15       2.535621442875e-13       3.650335512947e-17       1.501286673306e-10       1.499047474232e-11      -7.073002601871e-15 
   31       1.441413708133e-10       3.236437445419e-15       2.567775041626e-13       3.896832465498e-17       1.410091275580e-10       1.413576052214e-11      -6.396590018293e-15 
   32       1.463952075826e-10       3.611432808433e-15       2.591770761642e-13       4.151537005186e-17       1.326214463329e-10       1.335664050004e-11      -6.762641818574e-15 
   33       1.486801254864e-10       4.015016129358e-15       2.606814243581e-13       4.414456867161e-17       1.249199727076e-10       1.264651532698e-11      -7.818873992188e-15 
   34       1.509897640345e-10       4.448215707796e-15       2.611520648561e-13       4.685599075932e-17       1.178364445556e-10       1.199297684646e-11      -8.977662355455e-15 
   35       1.533128553685e-10       4.912022318222e-15       2.604413487503e-13       4.964969930118e-17       1.112653774906e-10       1.138013634121e-11      -9.648226744716e-15 
   36       1.556564400851e-10       5.407331562674e-15       2.584455836080e-13       5.252576077829e-17       1.051897338300e-10       1.080599232377e-11      -9.767319850853e-15 
   37       1.580292177842e-10       5.934975738564e-15       2.550685284665e-13       5.548423790223e-17       9.959051712246e-11       1.027026723527e-11      -9.448673879651e-15 
   38       1.604345680752e-10       6.495733992057e-15       2.502066302859e-13       5.852518672157e-17       9.440878167811e-11       9.769407750842e-12      -8.846217578404e-15 
   39       1.628715892074e-10       7.090327358486e-15       2.437741594018e-13       6.164865835907e-17       8.956689921529e-11       9.298313104687e-12      -8.133452111408e-15 
   40       1.653402212030e-10       7.719411597267e-15       2.357902486320e-13       6.485470502216e-17       8.505004761343e-11       8.856990275517e-12      -7.425910940752e-15 
   41       1.678367812730e-10       8.383575203883e-15       2.263206234333e-13       6.814337598268e-17       8.084633788077e-11       8.445644153390e-12      -6.837220922316e-15 
   42       1.703519108257e-10       9.083336119686e-15       2.154558815557e-13       7.151471607958e-17       7.692249779139e-11       8.062676650711e-12      -6.501558745320e-15 
   43       1.728750836195e-10       9.819187285167e-15       2.032777898012e-13       7.496876470731e-17       7.323617813470e-11       7.705425694931e-12      -6.532198441592e-15 
   44       1.754110545552e-10       1.059176001077e-14       1.897422469917e-13       7.850555216537e-17       6.978171351457e-11       7.373033294204e-12      -6.878946102194e-15 
   45       1.779676541246e-10       1.140170461709e-14       1.747622257520e-13       8.212510234013e-17       6.655560117438e-11       7.064204397201e-12      -7.428218260874e-15 
   46       1.805510005296e-10       1.224964426475e-14       1.582389463325e-13       8.582743374726e-17       6.354276219388e-11       6.776288358856e-12      -8.040307785122e-15 
   47       1.831652933038e-10       1.313617398970e-14       1.400610761028e-13       8.961255956191e-17       6.071563885677e-11       6.505177309770e-12      -8.547853816038e-15 
   48       1.858127763053e-10       1.406179281485e-14       1.201266656401e-13       9.348048488756e-17       5.804268056627e-11       6.246493224237e-12      -8.801584811771e-15 
   49       1.884940959108e-10       1.502667970663e-14       9.841813686879e-14       9.743119758201e-17       5.551873637263e-11       5.999781951658e-12      -8.826365499273e-15 
   50       1.912076892101e-10       1.603085280583e-14       7.494705779976e-14       1.014646748971e-16       5.314167890322e-11       5.765326818468e-12      -8.706508832422e-15 
   51       1.939494305800e-10       1.707422656581e-14       4.973360217492e-14       1.055808859061e-16       5.090335061827e-11       5.542928152918e-12      -8.543203552006e-15 
   52       1.967124339472e-10       1.815660737332e-14       2.280690899145e-14       1.097797913930e-16       4.878914018610e-11       5.331867404416e-12      -8.455396018633e-15 
   53       1.994897264050e-10       1.927779871105e-14      -5.808332483861e-15       1.140613433972e-16       4.678257002029e-11       5.131219454983e-12      -8.549436929985e-15 
   54       2.022835313645e-10       2.043795847301e-14      -3.613700506205e-14       1.184254839644e-16       4.488141894492e-11       4.940966429532e-12      -8.816828337889e-15 
   55       2.050980278716e-10       2.163732589796e-14      -6.821941757468e-14       1.228721458815e-16       4.308500703994e-11       4.761107759077e-12      -9.211719915846e-15 
   56       2.079366125947e-10       2.287612027904e-14      -1.020987590958e-13       1.274012528710e-16       4.138933866120e-11       4.591316255902e-12      -9.679424374346e-15 
   57       2.108018224789e-10       2.415454117757e-14      -1.378213169655e-13       1.320127194650e-16       3.978688892718e-11       4.430916832142e-12      -1.015598964532e-14 
   58       2.136952574019e-10       2.547276863675e-14      -1.754366948131e-13       1.367064508809e-16       3.826639020581e-11       4.278865218379e-12      -1.056777106660e-14 
   59       2.166178930297e-10       2.683084597395e-14      -2.149836525554e-13       1.414823492090e-16       3.681593382868e-11       4.134031921881e-12      -1.084892056296e-14 
   60       2.195712798942e-10       2.822829588663e-14      -2.564432912180e-13       1.463403339411e-16       3.543360130514e-11       3.996179441017e-12      -1.099956866698e-14 
   61       2.225564865764e-10       2.966441541414e-14      -2.997753622396e-13       1.512803259963e-16       3.411892902608e-11       3.865174780571e-12      -1.104042200519e-14 
   62       2.255736711792e-10       3.113838183080e-14      -3.449314257184e-13       1.563022419140e-16       3.286971104598e-11       3.740693454646e-12      -1.099621018560e-14 
   63       2.286220172107e-10       3.264924887935e-14      -3.918545810450e-13       1.614059939428e-16       3.168189795022e-11       3.622208552358e-12      -1.089586533796e-14 
   64       2.316996694655e-10       3.419594300426e-14      -4.404791975349e-13       1.665914901286e-16       3.054949572249e-11       3.508979803536e-12      -1.077270165401e-14 
   65       2.348046495871e-10       3.577738353009e-14      -4.907451270338e-13       1.718586475345e-16       2.946621980828e-11       3.400256018812e-12      -1.065709577352e-14 
   66       2.379379721403e-10       3.739288123932e-14      -5.426444452595e-13       1.772074349522e-16       2.843109161888e-11       3.295956801461e-12      -1.055232291593e-14 
   67       2.411010758021e-10       3.904181772266e-14      -5.961841571973e-13       1.826378394210e-16       2.744384998825e-11       3.196116090846e-12      -1.045390908370e-14 
   68       2.442948658863e-10       4.072352858839e-14      -6.513727217938e-13       1.881498543439e-16       2.650324949786e-11       3.100676654533e-12      -1.035664899218e-14 
   69       2.475196776287e-10       4.243730316278e-14      -7.082201876805e-13       1.937434799433e-16       2.560700844049e-11       3.009485122505e-12      -1.025457584334e-14 
   70       2.507752394735e-10       4.418238419042e-14      -7.667383288962e-13       1.994187237172e-16       2.475175678396e-11       2.922287021369e-12      -1.014093109949e-14 
   71       2.540606363587e-10       4.595796753457e-14      -8.269407806099e-13       2.051756008952e-16       2.393298413489e-11       2.838721808573e-12      -1.000813425699e-14 
   72       2.573748963540e-10       4.776316314391e-14      -8.888339489558e-13       2.110141456207e-16       2.314619987987e-11       2.758419656842e-12      -9.850086249896e-15 
   73       2.607189625245e-10       4.959686994444e-14      -9.523874188925e-13       2.169344459681e-16       2.239078705415e-11       2.681324350259e-12      -9.669658697752e-15 
   74       2.640940349798e-10       5.145787627975e-14      -1.017558084960e-12       2.229366165027e-16       2.166679762941e-11       2.607423682687e-12      -9.472594288026e-15 
   75       2.675009589597e-10       5.334489535307e-14      -1.084298800236e-12       2.290207888393e-16       2.097378193484e-11       2.536650601450e-12      -9.265323181289e-15 
   76       2.709402023507e-10       5.525656404330e-14      -1.152558301424e-12       2.351871123429e-16       2.031076429616e-11       2.468880564605e-12      -9.054986064152e-15 
   77       2.744118332046e-10       5.719144172102e-14      -1.222281133936e-12       2.414357548303e-16       1.967621867466e-11       2.403928898225e-12      -8.849457202205e-15 
   78       2.779154972555e-10       5.914800906454e-14      -1.293407576982e-12       2.477669032704e-16       1.906804430625e-11       2.341548153666e-12      -8.657367492957e-15 
   79       2.814503954376e-10       6.112466687590e-14      -1.365873568653e-12       2.541807644858e-16       1.848354134051e-11       2.281425464850e-12      -8.488127518777e-15 
   80       2.850157241091e-10       6.311978869516e-14      -1.439616219830e-12       2.606775605928e-16       1.792008143815e-11       2.223260851418e-12      -8.349707405477e-15 
   81       2.886121332289e-10       6.513189177054e-14      -1.514591623481e-12       2.672575128693e-16       1.737730727698e-11       2.167023602831e-12      -8.241481653343e-15 
   82       2.922404815592e-10       6.715949375767e-14      -1.590760015957e-12       2.739208563520e-16       1.685527234251e-11       2.112735803610e-12      -8.160177961809e-15 
   83       2.959013827525e-10       6.920106137370e-14      -1.668080491024e-12       2.806678454421e-16       1.635376858254e-11       2.060394216063e-12      -8.101991853418e-15 
   84       2.995951914380e-10       7.125501020965e-14      -1.746511028442e-12       2.874987545093e-16       1.587231491584e-11       2.009969136567e-12      -8.062568186132e-15 
   85       3.033219893073e-10       7.331970454267e-14      -1.826008522552e-12       2.944138784949e-16       1.541014574078e-11       1.961403251835e-12      -8.036982665631e-15 
   86       3.070815712014e-10       7.539345714835e-14      -1.906528810855e-12       3.014135335153e-16       1.496619944398e-11       1.914610495194e-12      -8.019723357616e-15 
   87       3.108734311963e-10       7.747452911301e-14      -1.988026702598e-12       3.084980574662e-16       1.453910690891e-11       1.869474902854e-12      -8.004672200109e-15 
   88       3.146967486898e-10       7.956112964598e-14      -2.070456007354e-12       3.156678106255e-16       1.412718002461e-11       1.825849470187e-12      -7.985086515763e-15 
   89       3.185507009387e-10       8.165144068041e-14      -2.153768079796e-12       3.229231648110e-16       1.372881369802e-11       1.783592375123e-12      -7.955046249490e-15 
   90       3.224354871882e-10       8.374369550746e-14      -2.237907130093e-12       3.302644675888e-16       1.334378921180e-11       1.742684653493e-12      -7.914096157951e-15 
   91       3.263514403076e-10       8.583611218877e-14      -2.322814227106e-12       3.376920735360e-16       1.297215510031e-11       1.703128961786e-12      -7.863301154223e-15 
   92       3.302987057436e-10       8.792687004716e-14      -2.408428722974e-12       3.452063556133e-16       1.261382662401e-11       1.664913277530e-12      -7.803848830574e-15 
   93       3.342772324970e-10       9.001410985032e-14      -2.494688259471e-12       3.528077055971e-16       1.226858047294e-11       1.628010315374e-12      -7.737052929202e-15 
   94       3.382867640993e-10       9.209593399439e-14      -2.581528774358e-12       3.604965345113e-16       1.193604947011e-11       1.592376943169e-12      -7.664356812965e-15 
   95       3.423268295902e-10       9.417040668771e-14      -2.668884507733e-12       3.682732730596e-16       1.161571727504e-11       1.557953598047e-12      -7.587336936118e-15 
   96       3.463967344939e-10       9.623555413439e-14      -2.756688008390e-12       3.761383720576e-16       1.130691308713e-11       1.524663702503e-12      -7.507706315047e-15 
   97       3.504955517965e-10       9.828936471802e-14      -2.844870140168e-12       3.840923028647e-16       1.100880634916e-11       1.492413080475e-12      -7.427317999004e-15 
   98       3.546221129225e-10       1.003297891853e-13      -2.933360088308e-12       3.921355578164e-16       1.072040145076e-11       1.461089373426e-12      -7.348168540842e-15 
   99       3.587752981472e-10       1.023547877999e-13      -3.022086747452e-12       4.002686533410e-16       1.044076594867e-11       1.430588681605e-12      -7.271997728753e-15 
  100       3.629549742724e-10       1.043624790278e-13      -3.110983096236e-12       4.084921388804e-16       1.016976356089e-11       1.400901055715e-12      -7.199015589269e-15 
  101       3.671611736200e-10       1.063510123509e-13      -3.199982457007e-12       4.168065900415e-16       9.907415638485e-12       1.372036085992e-12      -7.129000683964e-15 
  102       3.713938011202e-10       1.083185239194e-13      -3.289017192264e-12       4.252126064827e-16       9.653674476147e-12       1.343996506609e-12      -7.061686357384e-15 
  103       3.756526289174e-10       1.102631373048e-13      -3.378018727755e-12       4.337108123787e-16       9.408420846188e-12       1.316777941762e-12      -6.996759313972e-15 
  104       3.799372909777e-10       1.121829642528e-13      -3.466917575578e-12       4.423018568853e-16       9.171461532488e-12       1.290368651749e-12      -6.933858195001e-15 
  105       3.842472776940e-10       1.140761054362e-13      -3.555643357285e-12       4.509864146036e-16       8.942526864459e-12       1.264749279058e-12      -6.872572155498e-15 
  106       3.885819304937e-10       1.159406512080e-13      -3.644124826978e-12       4.597651860449e-16       8.721268251010e-12       1.239892594444e-12      -6.812439441177e-15 
  107       3.929404364439e-10       1.177746823547e-13      -3.732289894415e-12       4.686388980953e-16       8.507255714504e-12       1.215763243018e-12      -6.752945965365e-15 
