# Matter power spectrum P(k) at redshift z=0
# for k=1.04595e-05 to 1.0871 h/Mpc,
# number of wavenumbers equal to 603
#    1:k (h/Mpc)              2:P (Mpc/h)^3        
       1.045945127612e-05       4.767652902426e+01 
       2.331030718023e-05       1.034008053051e+02 
       3.620623530250e-05       1.582194676274e+02 
       4.918177117858e-05       2.126936905539e+02 
       6.227201971131e-05       2.671472356457e+02 
       7.551296673595e-05       3.218252895150e+02 
       8.894180051391e-05       3.769391775602e+02 
       1.025972474121e-04       4.326847117893e+02 
       1.165199260580e-04       4.892516609772e+02 
       1.307527242929e-04       5.468295250530e+02 
       1.453412032548e-04       6.056115706187e+02 
       1.603340328627e-04       6.657980048193e+02 
       1.757834628033e-04       7.275987058630e+02 
       1.917458327621e-04       7.912357369251e+02 
       2.082821250011e-04       8.569457704717e+02 
       2.254585613378e-04       9.249824949217e+02 
       2.433472449629e-04       9.956190396468e+02 
       2.620268451269e-04       1.069150434610e+03 
       2.815833192738e-04       1.145896076987e+03 
       3.021106623714e-04       1.226202176797e+03 
       3.237116666235e-04       1.310444099159e+03 
       3.464986660462e-04       1.399028497879e+03 
       3.705942291804e-04       1.492395082947e+03 
       3.961317492422e-04       1.591017805355e+03 
       4.232558642807e-04       1.695405196409e+03 
       4.521226209217e-04       1.806099504151e+03 
       4.828992752975e-04       1.923674231854e+03 
       5.157636062402e-04       2.048729594806e+03 
       5.509026026750e-04       2.181885413269e+03 
       5.885103850585e-04       2.323770958799e+03 
       6.287852368154e-04       2.475011377553e+03 
       6.719256638313e-04       2.636210509425e+03 
       7.181254746123e-04       2.807930266459e+03 
       7.675679828355e-04       2.990667159285e+03 
       8.204195717702e-04       3.184827095211e+03 
       8.768230094416e-04       3.390700229059e+03 
       9.368910358841e-04       3.608437894483e+03 
       1.000700823592e-03       3.838034178330e+03 
       1.068289905770e-03       4.079314254982e+03 
       1.139654055821e-03       4.331931370989e+03 
       1.214747393270e-03       4.595373036491e+03 
       1.293484722253e-03       4.868976807336e+03 
       1.375745835255e-03       5.151932677716e+03 
       1.461381295461e-03       5.443349730021e+03 
       1.550219087820e-03       5.742289522639e+03 
       1.642071514798e-03       6.047757330405e+03 
       1.736741792394e-03       6.358749559905e+03 
       1.834029941195e-03       6.674278275454e+03 
       1.933737727182e-03       6.993390969798e+03 
       2.035672555336e-03       7.315185856350e+03 
       2.139650336230e-03       7.638821948322e+03 
       2.245497424536e-03       7.963525504732e+03 
       2.353051771073e-03       8.288593119182e+03 
       2.462163444140e-03       8.613390755853e+03 
       2.572694670398e-03       8.937352426305e+03 
       2.684519528660e-03       9.259976148100e+03 
       2.797523407930e-03       9.580819938320e+03 
       2.911602318308e-03       9.899496816242e+03 
       3.026662122317e-03       1.021566914345e+04 
       3.142617736156e-03       1.052904438379e+04 
       3.259392335709e-03       1.083937002520e+04 
       3.376916590580e-03       1.114642923580e+04 
       3.495127940749e-03       1.145003538957e+04 
       3.613969924073e-03       1.175003127379e+04 
       3.733391558271e-03       1.204628184359e+04 
       3.853346777979e-03       1.233867630608e+04 
       3.973793925354e-03       1.262712034809e+04 
       4.094695291451e-03       1.291153879048e+04 
       4.216016704876e-03       1.319186590877e+04 
       4.337727163858e-03       1.346805439747e+04 
       4.459798507808e-03       1.374006798114e+04 
       4.582205124542e-03       1.400787784569e+04 
       4.704923689492e-03       1.427146346619e+04 
       4.827932933535e-03       1.453081015005e+04 
       4.951213436295e-03       1.478591535145e+04 
       5.074747442112e-03       1.503675395212e+04 
       5.198518696112e-03       1.528342961567e+04 
       5.322512298097e-03       1.552583475471e+04 
       5.446714572234e-03       1.576401222964e+04 
       5.571112950725e-03       1.599801933208e+04 
       5.695695869853e-03       1.622783835331e+04 
       5.820452677015e-03       1.645353824896e+04 
       5.945373547465e-03       1.667509958890e+04 
       6.070449409683e-03       1.689253692245e+04 
       6.195671878394e-03       1.710593412218e+04 
       6.321033194380e-03       1.731532453331e+04 
       6.446526170334e-03       1.752068975970e+04 
       6.572144142081e-03       1.772208551875e+04 
       6.697880924598e-03       1.791954932417e+04 
       6.823730772287e-03       1.811313475607e+04 
       6.949688343070e-03       1.830286328851e+04 
       7.075748665881e-03       1.848877342383e+04 
       7.201907111211e-03       1.867093012589e+04 
       7.328159364377e-03       1.884933662390e+04 
       7.454501401243e-03       1.902403995327e+04 
       7.580929466136e-03       1.919510110469e+04 
       7.707440051741e-03       1.936254552177e+04 
       7.834029880772e-03       1.952642471636e+04 
       7.960695889247e-03       1.968678453990e+04 
       8.087435211214e-03       1.984364111379e+04 
       8.214245164771e-03       1.999704565857e+04 
       8.341123239287e-03       2.014704464792e+04 
       8.468067083672e-03       2.029367231145e+04 
       8.595074495633e-03       2.043696624610e+04 
       8.722143411802e-03       2.057697061489e+04 
       8.849271898667e-03       2.071371462398e+04 
       8.976458144225e-03       2.084724081789e+04 
       9.103700450309e-03       2.097758887065e+04 
       9.230997225503e-03       2.110478698247e+04 
       9.358346978621e-03       2.122888051232e+04 
       9.485748312684e-03       2.134989726454e+04 
       9.613199919355e-03       2.146787926473e+04 
       9.740700573800e-03       2.158285338163e+04 
       9.868249129934e-03       2.169486547477e+04 
       9.995844516016e-03       2.180394191844e+04 
       1.012348573058e-02       2.191011960296e+04 
       1.025117183864e-02       2.201343211314e+04 
       1.037890196822e-02       2.211391779483e+04 
       1.050667530708e-02       2.221160601191e+04 
       1.063449109970e-02       2.230652986606e+04 
       1.076234864451e-02       2.239872947620e+04 
       1.089024729123e-02       2.248823022808e+04 
       1.101818643853e-02       2.257506976234e+04 
       1.114616553173e-02       2.265927172814e+04 
       1.127418406070e-02       2.274087231486e+04 
       1.140224155799e-02       2.281990804797e+04 
       1.153033759693e-02       2.289640584448e+04 
       1.165847179002e-02       2.297039622570e+04 
       1.178664378734e-02       2.304190933254e+04 
       1.191485327509e-02       2.311097527853e+04 
       1.204309997425e-02       2.317762549983e+04 
       1.217138363930e-02       2.324188712935e+04 
       1.229970405708e-02       2.330378065888e+04 
       1.242806104568e-02       2.336335410979e+04 
       1.255645445346e-02       2.342061872663e+04 
       1.268488415807e-02       2.347561988138e+04 
       1.281335006560e-02       2.352837416108e+04 
       1.294185210981e-02       2.357891158790e+04 
       1.307039025131e-02       2.362725495756e+04 
       1.319896447694e-02       2.367344049014e+04 
       1.332757479910e-02       2.371749473536e+04 
       1.345622125517e-02       2.375942369106e+04 
       1.358490390696e-02       2.379927359700e+04 
       1.371362284025e-02       2.383706976102e+04 
       1.384237816429e-02       2.387282696838e+04 
       1.397117001142e-02       2.390658583094e+04 
       1.409999853668e-02       2.393836432735e+04 
       1.422886391749e-02       2.396818012139e+04 
       1.435776635331e-02       2.399606746694e+04 
       1.448670606541e-02       2.402204604100e+04 
       1.461568329660e-02       2.404614506625e+04 
       1.474469831102e-02       2.406838403948e+04 
       1.487375139397e-02       2.408879548389e+04 
       1.500284285175e-02       2.410740598930e+04 
       1.513197301152e-02       2.412421395238e+04 
       1.526114222121e-02       2.413927142080e+04 
       1.539035084943e-02       2.415257805638e+04 
       1.551959928541e-02       2.416417598488e+04 
       1.564888793897e-02       2.417408215351e+04 
       1.577821724050e-02       2.418232661144e+04 
       1.590758764100e-02       2.418890521980e+04 
       1.603699961205e-02       2.419386532494e+04 
       1.616645364590e-02       2.419722780449e+04 
       1.629595025556e-02       2.419899685824e+04 
       1.642548997480e-02       2.419921745163e+04 
       1.655507335836e-02       2.419788471644e+04 
       1.668470098201e-02       2.419505471312e+04 
       1.681437344269e-02       2.419071115045e+04 
       1.694409135870e-02       2.418489996415e+04 
       1.707385536987e-02       2.417763057558e+04 
       1.720366613773e-02       2.416893050353e+04 
       1.733352434576e-02       2.415881254798e+04 
       1.746343069957e-02       2.414730274789e+04 
       1.759338592719e-02       2.413443126790e+04 
       1.772339077931e-02       2.412019468119e+04 
       1.785344602953e-02       2.410463479885e+04 
       1.798355247474e-02       2.408774935475e+04 
       1.811371093531e-02       2.406957959795e+04 
       1.824392225554e-02       2.405014298139e+04 
       1.837418730390e-02       2.402944080952e+04 
       1.850450697348e-02       2.400751576913e+04 
       1.863488218230e-02       2.398436481071e+04 
       1.876531387373e-02       2.396000448609e+04 
       1.889580301691e-02       2.393450918522e+04 
       1.902635060718e-02       2.390780610123e+04 
       1.915695766651e-02       2.387998101716e+04 
       1.928762524398e-02       2.385103272796e+04 
       1.941835441625e-02       2.382098084044e+04 
       1.954914628806e-02       2.378985675317e+04 
       1.968000199278e-02       2.375766368664e+04 
       1.981092269291e-02       2.372439747361e+04 
       1.994190958066e-02       2.369008982835e+04 
       2.007296387851e-02       2.365477894646e+04 
       2.020408683982e-02       2.361847477185e+04 
       2.033527974945e-02       2.358118454599e+04 
       2.046654392440e-02       2.354292506719e+04 
       2.059788071445e-02       2.350372956343e+04 
       2.072929150284e-02       2.346360324637e+04 
       2.086077770702e-02       2.342253346831e+04 
       2.099234077932e-02       2.338061388879e+04 
       2.112398220773e-02       2.333778112257e+04 
       2.125570351667e-02       2.329404052926e+04 
       2.138750626779e-02       2.324951227218e+04 
       2.151939206078e-02       2.320414611541e+04 
       2.165136253423e-02       2.315795058399e+04 
       2.178341936652e-02       2.311094573117e+04 
       2.191556427671e-02       2.306312907533e+04 
       2.204779902545e-02       2.301456384132e+04 
       2.218012541601e-02       2.296528818927e+04 
       2.231254529519e-02       2.291524777271e+04 
       2.244506055440e-02       2.286440332703e+04 
       2.257767313070e-02       2.281290767173e+04 
       2.271038500787e-02       2.276071446400e+04 
       2.284319821757e-02       2.270779634652e+04 
       2.297611484045e-02       2.265428697701e+04 
       2.310913700739e-02       2.260003494114e+04 
       2.324226690070e-02       2.254517759313e+04 
       2.337550675540e-02       2.248971582112e+04 
       2.350885886054e-02       2.243364660343e+04 
       2.364232556053e-02       2.237695203297e+04 
       2.377590925655e-02       2.231966008769e+04 
       2.390961240799e-02       2.226183549861e+04 
       2.404343753394e-02       2.220342934260e+04 
       2.417738721468e-02       2.214446703426e+04 
       2.431146409334e-02       2.208497173094e+04 
       2.444567087745e-02       2.202499977370e+04 
       2.458001034068e-02       2.196443231156e+04 
       2.471448532458e-02       2.190343905175e+04 
       2.484909874034e-02       2.184195887904e+04 
       2.498385357067e-02       2.177997557722e+04 
       2.511875287175e-02       2.171756579821e+04 
       2.525379977515e-02       2.165471164770e+04 
       2.538899748993e-02       2.159134564888e+04 
       2.552434930472e-02       2.152764324220e+04 
       2.565985858994e-02       2.146351629090e+04 
       2.579552880006e-02       2.139897452316e+04 
       2.593136347591e-02       2.133402084547e+04 
       2.606736624713e-02       2.126872503352e+04 
       2.620354083468e-02       2.120301768633e+04 
       2.633989105340e-02       2.113701874787e+04 
       2.647642081473e-02       2.107062026942e+04 
       2.661313412944e-02       2.100395588512e+04 
       2.675003511058e-02       2.093688866393e+04 
       2.688712797636e-02       2.086955335241e+04 
       2.702441705333e-02       2.080188890443e+04 
       2.716190677952e-02       2.073394682181e+04 
       2.729960170775e-02       2.066570804960e+04 
       2.743750650911e-02       2.059715567340e+04 
       2.757562597648e-02       2.052841226215e+04 
       2.771396502822e-02       2.045940379888e+04 
       2.785252871204e-02       2.039006882959e+04 
       2.799132220894e-02       2.032060277571e+04 
       2.813035083738e-02       2.025086497604e+04 
       2.826962005749e-02       2.018089301777e+04 
       2.840913547559e-02       2.011077592546e+04 
       2.854890284881e-02       2.004035362399e+04 
       2.868892808984e-02       1.996979801603e+04 
       2.882921727198e-02       1.989906709363e+04 
       2.896977663430e-02       1.982813288773e+04 
       2.911061258706e-02       1.975705777223e+04 
       2.925173171731e-02       1.968581121265e+04 
       2.939314079477e-02       1.961440360742e+04 
       2.953484677786e-02       1.954285664211e+04 
       2.967685682010e-02       1.947114930025e+04 
       2.981917827669e-02       1.939932526406e+04 
       2.996181871138e-02       1.932743152677e+04 
       3.010478590365e-02       1.925532284248e+04 
       3.024808785622e-02       1.918310756313e+04 
       3.039173280281e-02       1.911090337776e+04 
       3.053572921631e-02       1.903852560834e+04 
       3.068008581728e-02       1.896605547876e+04 
       3.082481158283e-02       1.889348844561e+04 
       3.096991575588e-02       1.882091096926e+04 
       3.111540785488e-02       1.874818114614e+04 
       3.126129768393e-02       1.867543807109e+04 
       3.140759534336e-02       1.860258520942e+04 
       3.155431124089e-02       1.852976172818e+04 
       3.170145610315e-02       1.845681344103e+04 
       3.184904098793e-02       1.838382315352e+04 
       3.199707729687e-02       1.831086338830e+04 
       3.214557678880e-02       1.823779031009e+04 
       3.229455159381e-02       1.816469521051e+04 
       3.244401422787e-02       1.809158044772e+04 
       3.259397760830e-02       1.801850110533e+04 
       3.274445506993e-02       1.794541076929e+04 
       3.289546038212e-02       1.787221127753e+04 
       3.304700776665e-02       1.779911087566e+04 
       3.319911191653e-02       1.772588132189e+04 
       3.335178801573e-02       1.765279557935e+04 
       3.350505176008e-02       1.757961937387e+04 
       3.365891937914e-02       1.750649094824e+04 
       3.381340765937e-02       1.743337712460e+04 
       3.396853396843e-02       1.736020581533e+04 
       3.412431628097e-02       1.728718293956e+04 
       3.428077320572e-02       1.721404492281e+04 
       3.443792401414e-02       1.714099602184e+04 
       3.459578867079e-02       1.706800408477e+04 
       3.475438786525e-02       1.699495862957e+04 
       3.491374304612e-02       1.692203552160e+04 
       3.507387645685e-02       1.684907377180e+04 
       3.523481117374e-02       1.677615909432e+04 
       3.539657114633e-02       1.670326810378e+04 
       3.555918124006e-02       1.663042185695e+04 
       3.572266728174e-02       1.655762285020e+04 
       3.588705610774e-02       1.648485167223e+04 
       3.605237561526e-02       1.641212309249e+04 
       3.621865481690e-02       1.633943663613e+04 
       3.638592389868e-02       1.626676207342e+04 
       3.655421428199e-02       1.619419513540e+04 
       3.672355868951e-02       1.612161915415e+04 
       3.689399121566e-02       1.604909923066e+04 
       3.706554740183e-02       1.597663915010e+04 
       3.723826431676e-02       1.590420249111e+04 
       3.741218064260e-02       1.583179897578e+04 
       3.758733676700e-02       1.575944094199e+04 
       3.776377488191e-02       1.568711216805e+04 
       3.794153908953e-02       1.561485487906e+04 
       3.812067551606e-02       1.554259960201e+04 
       3.830123243404e-02       1.547037106699e+04 
       3.848326039396e-02       1.539818029148e+04 
       3.866681236607e-02       1.532600724700e+04 
       3.885194389323e-02       1.525389346645e+04 
       3.903871325600e-02       1.518176368678e+04 
       3.922718165097e-02       1.510969032410e+04 
       3.941741338382e-02       1.503760418095e+04 
       3.960947607839e-02       1.496555115067e+04 
       3.980344090344e-02       1.489351640432e+04 
       3.999938281900e-02       1.482145937097e+04 
       4.019738084416e-02       1.474939488935e+04 
       4.039751834875e-02       1.467732087404e+04 
       4.059988337135e-02       1.460527781540e+04 
       4.080456896657e-02       1.453317822425e+04 
       4.101167358483e-02       1.446105906360e+04 
       4.122130148835e-02       1.438896281394e+04 
       4.143356320744e-02       1.431673528856e+04 
       4.164857604193e-02       1.424452901108e+04 
       4.186646461303e-02       1.417225376171e+04 
       4.208736147177e-02       1.409990443981e+04 
       4.231140777109e-02       1.402749579726e+04 
       4.253875400956e-02       1.395495915803e+04 
       4.276956085597e-02       1.388236289592e+04 
       4.300400006543e-02       1.380966303055e+04 
       4.324225549923e-02       1.373683412721e+04 
       4.348452426262e-02       1.366386927623e+04 
       4.373101797711e-02       1.359072932772e+04 
       4.398196420624e-02       1.351747098925e+04 
       4.423760805749e-02       1.344400473948e+04 
       4.449821398635e-02       1.337034159049e+04 
       4.476406783332e-02       1.329648243047e+04 
       4.503547913041e-02       1.322236512513e+04 
       4.531278371973e-02       1.314799427449e+04 
       4.559634673543e-02       1.307333280396e+04 
       4.588656600946e-02       1.299832983304e+04 
       4.618387597386e-02       1.292305166158e+04 
       4.648875214666e-02       1.284733455766e+04 
       4.680171630621e-02       1.277123412485e+04 
       4.712334248111e-02       1.269471904013e+04 
       4.745426390973e-02       1.261768481151e+04 
       4.779518115776e-02       1.254014502619e+04 
       4.814687162409e-02       1.246201746711e+04 
       4.851020071896e-02       1.238321724262e+04 
       4.888613506499e-02       1.230372563246e+04 
       4.927575815639e-02       1.222351880131e+04 
       4.968028901898e-02       1.214250188196e+04 
       5.010110455025e-02       1.206052863270e+04 
       5.053976639221e-02       1.197750434878e+04 
       5.099805341175e-02       1.189332836625e+04 
       5.147800114538e-02       1.180788410513e+04 
       5.198194992303e-02       1.172101595658e+04 
       5.251260383619e-02       1.163255105307e+04 
       5.307310327366e-02       1.154221829004e+04 
       5.366711442156e-02       1.144983247097e+04 
       5.429893989830e-02       1.135500199130e+04 
       5.497365550233e-02       1.125735648599e+04 
       5.569727871036e-02       1.115643414514e+04 
       5.647697466374e-02       1.105160112990e+04 
       5.732130405290e-02       1.094204576397e+04 
       5.824051282784e-02       1.082671834707e+04 
       5.924685276739e-02       1.070426279269e+04 
       6.035489888279e-02       1.057286957918e+04 
       6.158178531351e-02       1.043012827357e+04 
