# dimensionless total [l(l+1)/2pi] C_l's
# for l=2 to 3000, i.e. number of multipoles equal to 2999
#
# -> if you prefer output in CAMB/HealPix/LensPix units/order, set 'format' to 'camb' in input file
# -> if you don't want to see such a header, set 'headers' to 'no' in input file
# -> for CMB lensing (phi), these are C_l^phi-phi for the lensing potential.
#    Remember the conversion factors:
#    C_l^dd (deflection) = l(l+1) C_l^phi-phi
#    C_l^gg (shear/convergence) = 1/4 (l(l+1))^2 C_l^phi-phi
#
# 1:l     2:TT                     3:EE                     4:TE                     5:BB                     6:phiphi                 7:TPhi                   8:Ephi               
    2       1.371152528527e-10       4.140825881478e-15       3.517921670538e-13       0.000000000000e+00       8.190619263689e-09       4.464145700981e-10      -1.837274094742e-12 
    3       1.298445410228e-10       5.310156768468e-15       3.953976423685e-13       0.000000000000e+00       5.026662627857e-09       3.161459525275e-10      -1.392499882980e-12 
    4       1.229491810641e-10       4.595534053953e-15       3.698584639048e-13       0.000000000000e+00       3.489972755003e-09       2.391154122733e-10      -9.125330532737e-13 
    5       1.178091923895e-10       3.066783505130e-15       3.149469227825e-13       0.000000000000e+00       2.602404069254e-09       1.886090095598e-10      -5.082183840267e-13 
    6       1.142720501978e-10       1.714373906541e-15       2.534902362646e-13       0.000000000000e+00       2.031116599091e-09       1.532296149564e-10      -2.102539133869e-13 
    7       1.119931158792e-10       9.244832641473e-16       1.988263163228e-13       0.000000000000e+00       1.637465206408e-09       1.273535579568e-10      -2.017331662169e-14 
    8       1.107001871435e-10       5.940179944726e-16       1.568168173680e-13       0.000000000000e+00       1.352421914704e-09       1.077918058402e-10       7.688998356348e-14 
    9       1.100824349925e-10       4.753089793141e-16       1.287916031504e-13       0.000000000000e+00       1.137993703201e-09       9.259362649346e-11       1.042040531995e-13 
   10       1.099920530515e-10       4.048816790926e-16       1.133782769668e-13       0.000000000000e+00       9.718545103663e-10       8.053895200071e-11       8.752738190987e-14 
   11       1.103207442824e-10       3.409162987244e-16       1.078478002599e-13       0.000000000000e+00       8.189263163575e-10       7.120909448266e-11       5.088798340124e-14 
   12       1.109589193866e-10       2.980762831023e-16       1.091639273226e-13       0.000000000000e+00       7.151012284927e-10       6.298940018860e-11       1.164520802773e-14 
   13       1.118287194006e-10       2.868395284416e-16       1.145959181217e-13       0.000000000000e+00       6.299045131249e-10       5.623213784389e-11      -1.827255101720e-14 
   14       1.128921776999e-10       2.994018668751e-16       1.221621188669e-13       0.000000000000e+00       5.590638435789e-10       5.053296102919e-11      -3.422293564037e-14 
   15       1.141373218097e-10       3.243768759867e-16       1.305342398698e-13       0.000000000000e+00       4.994670089290e-10       4.552345573419e-11      -3.704857695893e-14 
   16       1.154900768887e-10       3.596018086043e-16       1.389853502195e-13       0.000000000000e+00       4.488188545158e-10       4.129091387989e-11      -3.037447450059e-14 
   17       1.169621895999e-10       4.105797961333e-16       1.474684151745e-13       0.000000000000e+00       4.053919145219e-10       3.766274035537e-11      -1.937462847168e-14 
   18       1.185343133698e-10       4.825978231684e-16       1.560852456467e-13       0.000000000000e+00       3.677175479678e-10       3.446608266791e-11      -8.914276832934e-15 
   19       1.202058975635e-10       5.759545125197e-16       1.650609570105e-13       0.000000000000e+00       3.351936475750e-10       3.165709419100e-11      -1.582467607391e-15 
   20       1.219345669233e-10       6.886439269496e-16       1.746245683755e-13       0.000000000000e+00       3.065619919034e-10       2.915493314215e-11       9.038784353365e-16 
   21       1.237326337513e-10       8.199295127649e-16       1.846890543416e-13       0.000000000000e+00       2.813678869733e-10       2.694928904937e-11      -8.807279348931e-16 
   22       1.255983793783e-10       9.692487601059e-16       1.949942543610e-13       0.000000000000e+00       2.590044940631e-10       2.501113134365e-11      -5.169037823795e-15 
   23       1.275291657068e-10       1.137046746931e-15       2.052489033807e-13       0.000000000000e+00       2.391694429474e-10       2.328661578369e-11      -1.017645606870e-14 
   24       1.295011635583e-10       1.323904991055e-15       2.151020778403e-13       0.000000000000e+00       2.214056014323e-10       2.169826972552e-11      -1.400621459182e-14 
   25       1.315142367142e-10       1.529995172242e-15       2.242351132823e-13       0.000000000000e+00       2.054697845474e-10       2.025326943332e-11      -1.585955419406e-14 
   26       1.335624760859e-10       1.755507710546e-15       2.323546109705e-13       0.000000000000e+00       1.910483142576e-10       1.896925395984e-11      -1.544172424560e-14 
   27       1.356550343177e-10       2.002013064764e-15       2.394017542827e-13       0.000000000000e+00       1.780652659674e-10       1.783116087599e-11      -1.329541629509e-14 
   28       1.377894270018e-10       2.271735337643e-15       2.454196232754e-13       0.000000000000e+00       1.663620870270e-10       1.679373244261e-11      -1.046115115053e-14 
   29       1.399493964382e-10       2.566937514322e-15       2.504772997052e-13       0.000000000000e+00       1.556530270369e-10       1.580197811931e-11      -8.092176609313e-15 
   30       1.421411059216e-10       2.888798995046e-15       2.545952800614e-13       0.000000000000e+00       1.458781096734e-10       1.486364585177e-11      -6.561902365052e-15 
   31       1.443676892977e-10       3.238086797695e-15       2.577939044017e-13       0.000000000000e+00       1.369638639190e-10       1.400367756670e-11      -6.012911495048e-15 
   32       1.466237278980e-10       3.615492569265e-15       2.600901660185e-13       0.000000000000e+00       1.287681816630e-10       1.323954622704e-11      -6.491713230453e-15 
   33       1.489146109755e-10       4.021859649129e-15       2.614152323797e-13       0.000000000000e+00       1.212459332286e-10       1.256106006297e-11      -7.630958561275e-15 
   34       1.512420369779e-10       4.458026199935e-15       2.616656003959e-13       0.000000000000e+00       1.143301007345e-10       1.194159694190e-11      -8.835025468391e-15 
   35       1.536012747187e-10       4.924804479824e-15       2.607297368964e-13       0.000000000000e+00       1.079172433866e-10       1.135138305690e-11      -9.507571722021e-15 
   36       1.559931642434e-10       5.423134116360e-15       2.585103534695e-13       0.000000000000e+00       1.019903830707e-10       1.078893531419e-11      -9.592660032249e-15 
   37       1.584146629178e-10       5.953976412604e-15       2.549084121052e-13       0.000000000000e+00       9.653060323006e-11       1.025965498818e-11      -9.217682203696e-15 
   38       1.608545959843e-10       6.518271473207e-15       2.498164141201e-13       0.000000000000e+00       9.147990134770e-11       9.767241340409e-12      -8.554167501233e-15 
   39       1.632994550391e-10       7.116888499710e-15       2.431448447673e-13       0.000000000000e+00       8.676202754960e-11       9.313243392739e-12      -7.793285572828e-15 
   40       1.657552126668e-10       7.750460621453e-15       2.349139016778e-13       0.000000000000e+00       8.236231217879e-11       8.896023284696e-12      -7.054420899439e-15 
   41       1.682315417016e-10       8.419490760699e-15       2.251919799241e-13       0.000000000000e+00       7.826902617285e-11       8.511100842971e-12      -6.450851155104e-15 
   42       1.707354908371e-10       9.124389324628e-15       2.140727023243e-13       0.000000000000e+00       7.444957003603e-11       8.151150735205e-12      -6.115909287787e-15 
   43       1.732714858494e-10       9.865541714641e-15       2.016402659005e-13       0.000000000000e+00       7.086248756867e-11       7.808221535388e-12      -6.161563599521e-15 
   44       1.758421292514e-10       1.064354898327e-14       1.878491656614e-13       0.000000000000e+00       6.750213536467e-11       7.481747301750e-12      -6.536053351388e-15 
   45       1.784470839261e-10       1.145905298311e-14       1.726093899107e-13       0.000000000000e+00       6.436498719713e-11       7.172658673471e-12      -7.123764118389e-15 
   46       1.810824527557e-10       1.231266907715e-14       1.558184257112e-13       0.000000000000e+00       6.143622456301e-11       6.881092346364e-12      -7.782395212775e-15 
   47       1.837404646001e-10       1.320498528407e-14       1.373604117994e-13       0.000000000000e+00       5.868885691410e-11       6.606323076744e-12      -8.341395737889e-15 
   48       1.864127284923e-10       1.413650661867e-14       1.171277180312e-13       0.000000000000e+00       5.609200773905e-11       6.347143198490e-12      -8.647561784331e-15 
   49       1.891018136754e-10       1.510747155427e-14       9.509485340122e-14       0.000000000000e+00       5.364058763097e-11       6.103286337543e-12      -8.720676291491e-15 
   50       1.918123943119e-10       1.611798235481e-14       7.126393640084e-14       0.000000000000e+00       5.133247415238e-11       5.874288200108e-12      -8.639055122155e-15 
   51       1.945478375456e-10       1.716805180168e-14       4.564437727962e-14       0.000000000000e+00       4.915967429924e-11       5.659030046796e-12      -8.497037940927e-15 
   52       1.973100715319e-10       1.825759954282e-14       1.825317517045e-14       0.000000000000e+00       4.710791237748e-11       5.455693528797e-12      -8.405830448806e-15 
   53       2.001000292697e-10       1.938652505838e-14      -1.089407704663e-14       0.000000000000e+00       4.516109856623e-11       5.262286524013e-12      -8.466097351034e-15 
   54       2.029194178636e-10       2.055495698893e-14      -4.181357761452e-14       0.000000000000e+00       4.331703226956e-11       5.078483350440e-12      -8.675528710946e-15 
   55       2.057691742107e-10       2.176306155730e-14      -7.453022643440e-14       0.000000000000e+00       4.157501849705e-11       4.904179036425e-12      -8.998972838800e-15 
   56       2.086488236214e-10       2.301097113537e-14      -1.090691071137e-13       0.000000000000e+00       3.993113781601e-11       4.738938995448e-12      -9.394270540114e-15 
   57       2.115563719922e-10       2.429878380570e-14      -1.454555794537e-13       0.000000000000e+00       3.837803886897e-11       4.581977803605e-12      -9.811912894616e-15 
   58       2.144881979788e-10       2.562656292303e-14      -1.837153719364e-13       0.000000000000e+00       3.690473089104e-11       4.432137977078e-12      -1.019469903519e-14 
   59       2.174406603451e-10       2.699423967974e-14      -2.238666467696e-13       0.000000000000e+00       3.549960174488e-11       4.288230377457e-12      -1.049043102923e-14 
   60       2.204156007977e-10       2.840129537469e-14      -2.658938331110e-13       0.000000000000e+00       3.416076170737e-11       4.150195941334e-12      -1.069421845013e-14 
   61       2.234159307758e-10       2.984700445175e-14      -3.097678697985e-13       0.000000000000e+00       3.288773939130e-11       4.018176710582e-12      -1.081541081958e-14 
   62       2.264439799651e-10       3.133052135792e-14      -3.554535225359e-13       0.000000000000e+00       3.167837129698e-11       3.892169144765e-12      -1.086552199436e-14 
   63       2.295014466126e-10       3.285087681694e-14      -4.029092042638e-13       0.000000000000e+00       3.052870366926e-11       3.772015157184e-12      -1.085832988095e-14 
   64       2.325893478411e-10       3.440697410280e-14      -4.520867955303e-13       0.000000000000e+00       2.943289435449e-11       3.657393150923e-12      -1.080997615017e-14 
   65       2.357082847946e-10       3.599771426423e-14      -5.029416650988e-13       0.000000000000e+00       2.838482061709e-11       3.547919552189e-12      -1.073594633783e-14 
   66       2.388594149429e-10       3.762241099268e-14      -5.554656018594e-13       0.000000000000e+00       2.738351880365e-11       3.443498537562e-12      -1.064104281247e-14 
   67       2.420435974854e-10       3.928045721444e-14      -6.096605568293e-13       0.000000000000e+00       2.642872466982e-11       3.344030567880e-12      -1.052746023033e-14 
   68       2.452610565748e-10       4.097120377546e-14      -6.655291620492e-13       0.000000000000e+00       2.551921959304e-11       3.249302663111e-12      -1.039772998884e-14 
   69       2.485113404383e-10       4.269395932189e-14      -7.230748362743e-13       0.000000000000e+00       2.465278014871e-11       3.158982529235e-12      -1.025473267933e-14 
   70       2.517932804985e-10       4.444799018073e-14      -7.823018906671e-13       0.000000000000e+00       2.382612768632e-11       3.072612685124e-12      -1.010171053972e-14 
   71       2.551049504943e-10       4.623252024033e-14      -8.432156344886e-13       0.000000000000e+00       2.303487790559e-11       2.989604589418e-12      -9.942279907214e-15 
   72       2.584444749902e-10       4.804667992809e-14      -9.058150584125e-13       0.000000000000e+00       2.227466634320e-11       2.909388470531e-12      -9.779935649235e-15 
   73       2.618127254151e-10       4.988934207020e-14      -9.700690236633e-13       0.000000000000e+00       2.154488699436e-11       2.831909163610e-12      -9.616426657099e-15 
   74       2.652110700626e-10       5.175925416271e-14      -1.035935672107e-12       0.000000000000e+00       2.084558353684e-11       2.757215278934e-12      -9.453089580584e-15 
   75       2.686405494347e-10       5.365508522300e-14      -1.103369380977e-12       0.000000000000e+00       2.017631382982e-11       2.685309652965e-12      -9.291330060216e-15 
   76       2.721018547554e-10       5.557542450829e-14      -1.172320699111e-12       0.000000000000e+00       1.953612633728e-11       2.616147030091e-12      -9.132623581302e-15 
   77       2.755953064840e-10       5.751878023396e-14      -1.242736283177e-12       0.000000000000e+00       1.892353655142e-11       2.549631744374e-12      -8.978516327943e-15 
   78       2.791208328284e-10       5.948357829206e-14      -1.314558833904e-12       0.000000000000e+00       1.833650341610e-11       2.485615401289e-12      -8.830626037071e-15 
   79       2.826779482586e-10       6.146816096966e-14      -1.387727032320e-12       0.000000000000e+00       1.777240575021e-11       2.423894559476e-12      -8.690642852463e-15 
   80       2.862661246889e-10       6.347084664684e-14      -1.462180274315e-12       0.000000000000e+00       1.722869209557e-11       2.364265287170e-12      -8.559970456476e-15 
   81       2.898860265311e-10       6.549012364969e-14      -1.537873961560e-12       0.000000000000e+00       1.670501209852e-11       2.306702842948e-12      -8.438575812722e-15 
   82       2.935384519084e-10       6.752448788104e-14      -1.614766762126e-12       0.000000000000e+00       1.620141397047e-11       2.251209113509e-12      -8.325940286495e-15 
   83       2.972239450410e-10       6.957238468114e-14      -1.692816072708e-12       0.000000000000e+00       1.571769300534e-11       2.197757265034e-12      -8.221395906523e-15 
   84       3.009427820316e-10       7.163220867526e-14      -1.771978043716e-12       0.000000000000e+00       1.525338047383e-11       2.146290478169e-12      -8.124119557471e-15 
   85       3.046949566499e-10       7.370230362144e-14      -1.852207604364e-12       0.000000000000e+00       1.480773251767e-11       2.096720683000e-12      -8.033127172446e-15 
   86       3.084801661183e-10       7.578096225807e-14      -1.933458487755e-12       0.000000000000e+00       1.437971904382e-11       2.048927294039e-12      -7.947267925489e-15 
   87       3.122977968963e-10       7.786642615163e-14      -2.015683255978e-12       0.000000000000e+00       1.396801261872e-11       2.002755945199e-12      -7.865218424083e-15 
   88       3.161469104661e-10       7.995688554432e-14      -2.098833325193e-12       0.000000000000e+00       1.357097736255e-11       1.958017224776e-12      -7.785476901651e-15 
   89       3.200265808392e-10       8.205050214168e-14      -2.182857816150e-12       0.000000000000e+00       1.318705790787e-11       1.914533532728e-12      -7.706724263251e-15 
   90       3.239369987386e-10       8.414548190415e-14      -2.267699844419e-12       0.000000000000e+00       1.281604040884e-11       1.872290833754e-12      -7.628984788801e-15 
   91       3.278785152433e-10       8.624001344661e-14      -2.353299691737e-12       0.000000000000e+00       1.245796980221e-11       1.831308489398e-12      -7.552637653647e-15 
   92       3.318512966643e-10       8.833224630356e-14      -2.439595936160e-12       0.000000000000e+00       1.211276231135e-11       1.791592718410e-12      -7.478065976787e-15 
   93       3.358553155995e-10       9.042029112050e-14      -2.526525459553e-12       0.000000000000e+00       1.178020033398e-11       1.753136052663e-12      -7.405656509299e-15 
   94       3.398903419874e-10       9.250221984525e-14      -2.614023455090e-12       0.000000000000e+00       1.145992732984e-11       1.715916793063e-12      -7.335799322765e-15 
   95       3.439559341620e-10       9.457606591926e-14      -2.702023434739e-12       0.000000000000e+00       1.115144270849e-11       1.679898465467e-12      -7.268887497707e-15 
   96       3.480514299064e-10       9.663982446899e-14      -2.790457236762e-12       0.000000000000e+00       1.085409671691e-11       1.645029276592e-12      -7.205316812011e-15 
   97       3.521759375077e-10       9.869145249722e-14      -2.879255033200e-12       0.000000000000e+00       1.056708532732e-11       1.611241569928e-12      -7.145485429356e-15 
   98       3.563283268111e-10       1.007288690744e-13      -2.968345337373e-12       0.000000000000e+00       1.028944512481e-11       1.578451281654e-12      -7.089793587643e-15 
   99       3.605075101264e-10       1.027500038857e-13      -3.057656328769e-12       0.000000000000e+00       1.002027382669e-11       1.546578245159e-12      -7.038503736427e-15 
  100       3.647133496855e-10       1.047529503044e-13      -3.147120025642e-12       0.000000000000e+00       9.759438530619e-12       1.515611562253e-12      -6.991299018647e-15 
  101       3.689458626981e-10       1.067358344566e-13      -3.236668720096e-12       0.000000000000e+00       9.506958753291e-12       1.485552523550e-12      -6.947661381900e-15 
  102       3.732049376025e-10       1.086967695667e-13      -3.326233736579e-12       0.000000000000e+00       9.262787401194e-12       1.456394298216e-12      -6.907003572488e-15 
  103       3.774903286330e-10       1.106338567360e-13      -3.415745455339e-12       0.000000000000e+00       9.026808393242e-12       1.428121642590e-12      -6.868667132325e-15 
  104       3.818016503878e-10       1.125451857189e-13      -3.505133335892e-12       0.000000000000e+00       8.798834283414e-12       1.400710608813e-12      -6.831920395836e-15 
  105       3.861383723962e-10       1.144288357014e-13      -3.594325940479e-12       0.000000000000e+00       8.578603883400e-12       1.374128253446e-12      -6.795956486859e-15 
  106       3.904998136871e-10       1.162828760779e-13      -3.683250957528e-12       0.000000000000e+00       8.365779885237e-12       1.348332346094e-12      -6.759891315543e-15 
  107       3.948851373558e-10       1.181053672291e-13      -3.771835225117e-12       0.000000000000e+00       8.159946483958e-12       1.323271078033e-12      -6.722761575254e-15 
